E [keV],epsilon (3 mm),epsilon (30 mm),epsilon (80 mm),epsilon (120 mm),epsilon (250 mm)
1,5.28121E-175,1.78785E-54,4.88987E-130,2.97322E-139,1.22777E-101
2,5.96137E-100,1.43596E-52,6.32129E-74,1.10859E-78,2.89558E-59
3,3.06940E-69,2.46036E-43,2.83113E-51,2.16455E-54,6.97398E-42
4,3.35809E-52,7.95922E-36,8.65563E-39,4.60229E-41,3.41071E-32
5,2.62408E-41,4.66365E-30,7.75140E-31,1.32034E-32,5.75240E-26
6,9.77043E-34,1.41066E-25,2.53467E-25,9.28927E-27,1.29143E-21
7,3.57024E-28,5.01599E-22,2.81999E-21,1.76642E-22,2.11421E-18
8,6.39508E-24,3.70730E-19,3.47988E-18,3.22512E-19,6.24236E-16
9,1.43403E-20,8.43370E-17,9.46407E-16,1.17916E-16,5.64057E-14
10,7.22492E-18,7.77690E-15,8.69619E-14,1.36279E-14,2.17070E-12
11,1.20102E-15,3.54154E-13,3.57253E-12,6.71257E-13,4.42257E-11
12,8.56993E-14,9.20607E-12,7.94660E-11,1.72793E-11,5.53855E-10
13,3.16245E-12,1.52240E-10,1.09586E-09,2.68463E-10,4.74003E-09
14,6.91195E-11,1.73957E-09,1.03387E-08,2.79501E-09,2.99510E-08
15,9.89973E-10,1.46421E-08,7.18084E-08,2.10773E-08,1.48041E-07
16,1.00345E-08,9.54711E-08,3.88233E-07,1.22131E-07,5.98163E-07
17,7.63970E-08,5.01933E-07,1.70589E-06,5.69164E-07,2.04441E-06
18,4.57808E-07,2.19758E-06,6.30179E-06,2.21106E-06,6.07182E-06
19,2.24132E-06,8.22592E-06,2.01072E-05,7.36692E-06,1.60106E-05
20,9.23825E-06,2.68998E-05,5.66310E-05,2.15404E-05,3.81396E-05
21,3.28529E-05,7.82380E-05,1.43308E-04,5.63129E-05,8.32507E-05
22,1.02850E-04,2.05443E-04,3.30617E-04,1.33664E-04,1.68470E-04
23,2.88237E-04,4.93224E-04,7.03845E-04,2.91740E-04,3.19159E-04
24,7.33294E-04,1.09424E-03,1.39675E-03,5.91795E-04,5.70672E-04
25,1.71361E-03,2.26385E-03,2.60589E-03,1.12571E-03,9.69736E-04
26,3.71532E-03,4.40191E-03,4.60393E-03,2.02329E-03,1.57527E-03
27,7.53765E-03,8.09867E-03,7.75036E-03,3.45843E-03,2.45848E-03
28,1.44150E-02,1.41806E-02,1.24979E-02,5.65326E-03,3.70222E-03
29,2.61503E-02,2.37512E-02,1.93939E-02,8.87970E-03,5.39963E-03
30,4.52486E-02,3.82216E-02,2.90755E-02,1.34579E-02,7.65204E-03
31,7.50365E-02,5.93270E-02,4.22599E-02,1.97520E-02,1.05665E-02
32,1.19755E-01,8.91251E-02,5.97283E-02,2.81621E-02,1.42531E-02
33,1.84613E-01,1.29976E-01,8.23076E-02,3.91153E-02,1.88214E-02
34,2.75794E-01,1.84505E-01,1.10847E-01,5.30539E-02,2.43781E-02
35,4.00405E-01,2.55545E-01,1.46196E-01,7.04233E-02,3.10241E-02
36,5.66385E-01,3.46070E-01,1.89180E-01,9.16590E-02,3.88514E-02
37,7.82353E-01,4.59114E-01,2.40577E-01,1.17175E-01,4.79417E-02
38,1.05742E+00,5.97695E-01,3.01098E-01,1.47353E-01,5.83643E-02
39,1.40099E+00,7.64724E-01,3.71372E-01,1.82532E-01,7.01748E-02
40,1.82250E+00,9.62931E-01,4.51927E-01,2.23000E-01,8.34145E-02
41,2.33120E+00,1.19479E+00,5.43185E-01,2.68991E-01,9.81096E-02
42,2.93590E+00,1.46247E+00,6.45451E-01,3.20677E-01,1.14272E-01
43,3.64479E+00,1.76774E+00,7.58912E-01,3.78168E-01,1.31898E-01
44,4.46520E+00,2.11202E+00,8.83637E-01,4.41512E-01,1.50972E-01
45,5.40347E+00,2.49624E+00,1.01958E+00,5.10697E-01,1.71463E-01
46,6.46478E+00,2.92093E+00,1.16658E+00,5.85648E-01,1.93330E-01
47,7.65311E+00,3.38618E+00,1.32437E+00,6.66240E-01,2.16521E-01
48,8.97113E+00,3.89162E+00,1.49261E+00,7.52295E-01,2.40974E-01
49,1.04202E+01,4.43650E+00,1.67085E+00,8.43587E-01,2.66620E-01
50,1.20004E+01,5.01968E+00,1.85858E+00,9.39856E-01,2.93380E-01
51,1.37105E+01,5.63967E+00,2.05521E+00,1.04080E+00,3.21174E-01
52,1.55481E+01,6.29466E+00,2.26013E+00,1.14610E+00,3.49914E-01
53,1.75095E+01,6.98258E+00,2.47265E+00,1.25540E+00,3.79512E-01
54,1.95903E+01,7.70113E+00,2.69206E+00,1.36834E+00,4.09875E-01
55,2.17848E+01,8.44782E+00,2.91766E+00,1.48453E+00,4.40912E-01
56,2.40867E+01,9.22001E+00,3.14869E+00,1.60360E+00,4.72528E-01
57,2.64890E+01,1.00150E+01,3.38441E+00,1.72516E+00,5.04634E-01
58,2.89841E+01,1.08299E+01,3.62408E+00,1.84881E+00,5.37138E-01
59,3.15637E+01,1.16619E+01,3.86698E+00,1.97418E+00,5.69952E-01
60,3.42196E+01,1.25082E+01,4.11237E+00,2.10089E+00,6.02991E-01
61,3.69431E+01,1.33659E+01,4.35957E+00,2.22857E+00,6.36171E-01
62,3.97252E+01,1.42324E+01,4.60790E+00,2.35688E+00,6.69414E-01
63,4.25572E+01,1.51047E+01,4.85672E+00,2.48548E+00,7.02644E-01
64,4.54303E+01,1.59805E+01,5.10541E+00,2.61403E+00,7.35790E-01
65,4.83357E+01,1.68571E+01,5.35339E+00,2.74225E+00,7.68784E-01
66,5.12650E+01,1.77322E+01,5.60011E+00,2.86984E+00,8.01563E-01
67,5.42098E+01,1.86035E+01,5.84505E+00,2.99654E+00,8.34068E-01
68,5.71621E+01,1.94690E+01,6.08774E+00,3.12208E+00,8.66245E-01
69,6.01144E+01,2.03266E+01,6.32773E+00,3.24625E+00,8.98041E-01
70,6.30593E+01,2.11744E+01,6.56461E+00,3.36883E+00,9.29412E-01
71,6.59899E+01,2.20109E+01,6.79802E+00,3.48962E+00,9.60314E-01
72,6.88997E+01,2.28345E+01,7.02760E+00,3.60844E+00,9.90709E-01
73,7.17826E+01,2.36437E+01,7.25306E+00,3.72515E+00,1.02056E+00
74,7.46330E+01,2.44374E+01,7.47412E+00,3.83959E+00,1.04984E+00
75,7.74456E+01,2.52142E+01,7.69054E+00,3.95163E+00,1.07853E+00
76,8.02156E+01,2.59734E+01,7.90211E+00,4.06118E+00,1.10658E+00
77,8.29387E+01,2.67140E+01,8.10863E+00,4.16813E+00,1.13399E+00
78,8.56109E+01,2.74352E+01,8.30996E+00,4.27239E+00,1.16074E+00
79,8.82287E+01,2.81364E+01,8.50595E+00,4.37391E+00,1.18682E+00
80,9.07889E+01,2.88171E+01,8.69650E+00,4.47262E+00,1.21220E+00
81,9.32886E+01,2.94768E+01,8.88152E+00,4.56848E+00,1.23688E+00
82,9.57256E+01,3.01152E+01,9.06094E+00,4.66145E+00,1.26085E+00
83,9.80976E+01,3.07321E+01,9.23472E+00,4.75151E+00,1.28411E+00
84,1.00403E+02,3.13273E+01,9.40282E+00,4.83865E+00,1.30666E+00
85,1.02640E+02,3.19007E+01,9.56524E+00,4.92286E+00,1.32849E+00
86,1.04808E+02,3.24522E+01,9.72197E+00,5.00413E+00,1.34960E+00
87,1.06906E+02,3.29820E+01,9.87304E+00,5.08249E+00,1.36999E+00
88,1.08933E+02,3.34901E+01,1.00185E+01,5.15794E+00,1.38967E+00
89,1.10889E+02,3.39766E+01,1.01583E+01,5.23050E+00,1.40865E+00
90,1.12774E+02,3.44419E+01,1.02925E+01,5.30020E+00,1.42692E+00
91,1.14587E+02,3.48860E+01,1.04213E+01,5.36708E+00,1.44450E+00
92,1.16329E+02,3.53093E+01,1.05447E+01,5.43116E+00,1.46139E+00
93,1.18000E+02,3.57121E+01,1.06627E+01,5.49249E+00,1.47761E+00
94,1.19601E+02,3.60947E+01,1.07754E+01,5.55112E+00,1.49315E+00
95,1.21133E+02,3.64576E+01,1.08830E+01,5.60707E+00,1.50804E+00
96,1.22596E+02,3.68011E+01,1.09855E+01,5.66041E+00,1.52228E+00
97,1.23990E+02,3.71255E+01,1.10829E+01,5.71119E+00,1.53588E+00
98,1.25318E+02,3.74314E+01,1.11755E+01,5.75945E+00,1.54886E+00
99,1.26580E+02,3.77192E+01,1.12633E+01,5.80525E+00,1.56123E+00
100,1.27778E+02,3.79893E+01,1.13465E+01,5.84865E+00,1.57300E+00
101,1.28912E+02,3.82421E+01,1.14250E+01,5.88969E+00,1.58418E+00
102,1.29984E+02,3.84782E+01,1.14991E+01,5.92845E+00,1.59479E+00
103,1.30995E+02,3.86980E+01,1.15689E+01,5.96497E+00,1.60484E+00
104,1.31946E+02,3.89019E+01,1.16344E+01,5.99931E+00,1.61433E+00
105,1.32840E+02,3.90905E+01,1.16958E+01,6.03154E+00,1.62330E+00
106,1.33677E+02,3.92642E+01,1.17532E+01,6.06170E+00,1.63174E+00
107,1.34459E+02,3.94235E+01,1.18066E+01,6.08987E+00,1.63968E+00
108,1.35187E+02,3.95688E+01,1.18563E+01,6.11608E+00,1.64712E+00
109,1.35863E+02,3.97005E+01,1.19023E+01,6.14041E+00,1.65408E+00
110,1.36488E+02,3.98193E+01,1.19448E+01,6.16290E+00,1.66058E+00
111,1.37064E+02,3.99254E+01,1.19837E+01,6.18362E+00,1.66662E+00
112,1.37593E+02,4.00194E+01,1.20193E+01,6.20262E+00,1.67221E+00
113,1.38074E+02,4.01016E+01,1.20517E+01,6.21995E+00,1.67738E+00
114,1.38512E+02,4.01725E+01,1.20809E+01,6.23566E+00,1.68213E+00
115,1.38905E+02,4.02326E+01,1.21071E+01,6.24982E+00,1.68648E+00
116,1.39257E+02,4.02821E+01,1.21304E+01,6.26247E+00,1.69044E+00
117,1.39568E+02,4.03216E+01,1.21508E+01,6.27365E+00,1.69402E+00
118,1.39840E+02,4.03514E+01,1.21684E+01,6.28344E+00,1.69723E+00
119,1.40074E+02,4.03718E+01,1.21834E+01,6.29186E+00,1.70008E+00
120,1.40272E+02,4.03834E+01,1.21959E+01,6.29897E+00,1.70259E+00
121,1.40434E+02,4.03863E+01,1.22059E+01,6.30481E+00,1.70477E+00
122,1.40563E+02,4.03810E+01,1.22135E+01,6.30944E+00,1.70662E+00
123,1.40659E+02,4.03679E+01,1.22188E+01,6.31288E+00,1.70816E+00
124,1.40723E+02,4.03472E+01,1.22219E+01,6.31520E+00,1.70940E+00
125,1.40757E+02,4.03192E+01,1.22229E+01,6.31643E+00,1.71036E+00
126,1.40763E+02,4.02844E+01,1.22218E+01,6.31661E+00,1.71103E+00
127,1.40740E+02,4.02429E+01,1.22188E+01,6.31577E+00,1.71143E+00
128,1.40691E+02,4.01951E+01,1.22139E+01,6.31397E+00,1.71156E+00
129,1.40616E+02,4.01413E+01,1.22071E+01,6.31124E+00,1.71145E+00
130,1.40516E+02,4.00817E+01,1.21986E+01,6.30761E+00,1.71109E+00
131,1.40393E+02,4.00167E+01,1.21885E+01,6.30312E+00,1.71050E+00
132,1.40247E+02,3.99464E+01,1.21767E+01,6.29781E+00,1.70969E+00
133,1.40079E+02,3.98711E+01,1.21634E+01,6.29170E+00,1.70865E+00
134,1.39891E+02,3.97911E+01,1.21487E+01,6.28484E+00,1.70741E+00
135,1.39683E+02,3.97065E+01,1.21325E+01,6.27724E+00,1.70597E+00
136,1.39456E+02,3.96177E+01,1.21149E+01,6.26896E+00,1.70433E+00
137,1.39211E+02,3.95249E+01,1.20961E+01,6.26000E+00,1.70251E+00
138,1.38949E+02,3.94281E+01,1.20760E+01,6.25040E+00,1.70051E+00
139,1.38670E+02,3.93277E+01,1.20547E+01,6.24020E+00,1.69834E+00
140,1.38376E+02,3.92239E+01,1.20323E+01,6.22941E+00,1.69600E+00
141,1.38067E+02,3.91167E+01,1.20088E+01,6.21806E+00,1.69350E+00
142,1.37744E+02,3.90065E+01,1.19843E+01,6.20618E+00,1.69086E+00
143,1.37407E+02,3.88933E+01,1.19588E+01,6.19379E+00,1.68807E+00
144,1.37058E+02,3.87774E+01,1.19323E+01,6.18092E+00,1.68514E+00
145,1.36696E+02,3.86589E+01,1.19050E+01,6.16759E+00,1.68207E+00
146,1.36323E+02,3.85379E+01,1.18768E+01,6.15381E+00,1.67888E+00
147,1.35939E+02,3.84146E+01,1.18478E+01,6.13962E+00,1.67557E+00
148,1.35544E+02,3.82892E+01,1.18180E+01,6.12503E+00,1.67214E+00
149,1.35140E+02,3.81618E+01,1.17875E+01,6.11006E+00,1.66860E+00
150,1.34727E+02,3.80324E+01,1.17563E+01,6.09473E+00,1.66495E+00
151,1.34305E+02,3.79013E+01,1.17244E+01,6.07906E+00,1.66120E+00
152,1.33875E+02,3.77686E+01,1.16920E+01,6.06306E+00,1.65735E+00
153,1.33437E+02,3.76344E+01,1.16589E+01,6.04677E+00,1.65341E+00
154,1.32992E+02,3.74987E+01,1.16253E+01,6.03018E+00,1.64939E+00
155,1.32540E+02,3.73617E+01,1.15911E+01,6.01331E+00,1.64528E+00
156,1.32082E+02,3.72235E+01,1.15565E+01,5.99619E+00,1.64109E+00
157,1.31618E+02,3.70842E+01,1.15213E+01,5.97883E+00,1.63682E+00
158,1.31149E+02,3.69439E+01,1.14858E+01,5.96124E+00,1.63248E+00
159,1.30674E+02,3.68027E+01,1.14498E+01,5.94343E+00,1.62808E+00
160,1.30195E+02,3.66607E+01,1.14135E+01,5.92542E+00,1.62361E+00
161,1.29711E+02,3.65178E+01,1.13768E+01,5.90722E+00,1.61907E+00
162,1.29223E+02,3.63744E+01,1.13397E+01,5.88884E+00,1.61449E+00
163,1.28731E+02,3.62303E+01,1.13024E+01,5.87030E+00,1.60984E+00
164,1.28236E+02,3.60856E+01,1.12647E+01,5.85160E+00,1.60515E+00
165,1.27738E+02,3.59406E+01,1.12268E+01,5.83276E+00,1.60040E+00
166,1.27237E+02,3.57951E+01,1.11886E+01,5.81379E+00,1.59561E+00
167,1.26734E+02,3.56493E+01,1.11502E+01,5.79470E+00,1.59078E+00
168,1.26228E+02,3.55032E+01,1.11116E+01,5.77549E+00,1.58591E+00
169,1.25720E+02,3.53569E+01,1.10728E+01,5.75618E+00,1.58100E+00
170,1.25210E+02,3.52105E+01,1.10339E+01,5.73677E+00,1.57606E+00
171,1.24699E+02,3.50640E+01,1.09947E+01,5.71728E+00,1.57108E+00
172,1.24187E+02,3.49174E+01,1.09555E+01,5.69772E+00,1.56608E+00
173,1.23673E+02,3.47707E+01,1.09161E+01,5.67808E+00,1.56104E+00
174,1.23158E+02,3.46242E+01,1.08766E+01,5.65838E+00,1.55598E+00
175,1.22643E+02,3.44777E+01,1.08370E+01,5.63863E+00,1.55090E+00
176,1.22127E+02,3.43313E+01,1.07973E+01,5.61883E+00,1.54580E+00
177,1.21611E+02,3.41851E+01,1.07575E+01,5.59899E+00,1.54067E+00
178,1.21095E+02,3.40391E+01,1.07177E+01,5.57912E+00,1.53553E+00
179,1.20578E+02,3.38933E+01,1.06779E+01,5.55921E+00,1.53037E+00
180,1.20062E+02,3.37478E+01,1.06380E+01,5.53929E+00,1.52520E+00
181,1.19546E+02,3.36026E+01,1.05981E+01,5.51935E+00,1.52002E+00
182,1.19031E+02,3.34578E+01,1.05582E+01,5.49940E+00,1.51482E+00
183,1.18516E+02,3.33133E+01,1.05183E+01,5.47944E+00,1.50962E+00
184,1.18002E+02,3.31691E+01,1.04784E+01,5.45949E+00,1.50441E+00
185,1.17488E+02,3.30254E+01,1.04385E+01,5.43954E+00,1.49919E+00
186,1.16976E+02,3.28821E+01,1.03987E+01,5.41959E+00,1.49397E+00
187,1.16464E+02,3.27393E+01,1.03589E+01,5.39966E+00,1.48874E+00
188,1.15954E+02,3.25970E+01,1.03191E+01,5.37975E+00,1.48351E+00
189,1.15445E+02,3.24552E+01,1.02794E+01,5.35986E+00,1.47828E+00
190,1.14937E+02,3.23139E+01,1.02397E+01,5.34000E+00,1.47305E+00
191,1.14431E+02,3.21731E+01,1.02002E+01,5.32017E+00,1.46782E+00
192,1.13926E+02,3.20329E+01,1.01607E+01,5.30037E+00,1.46259E+00
193,1.13423E+02,3.18932E+01,1.01212E+01,5.28060E+00,1.45737E+00
194,1.12921E+02,3.17542E+01,1.00819E+01,5.26088E+00,1.45215E+00
195,1.12422E+02,3.16158E+01,1.00426E+01,5.24119E+00,1.44693E+00
196,1.11924E+02,3.14779E+01,1.00035E+01,5.22156E+00,1.44173E+00
197,1.11428E+02,3.13407E+01,9.96447E+00,5.20197E+00,1.43652E+00
198,1.10934E+02,3.12042E+01,9.92554E+00,5.18243E+00,1.43133E+00
199,1.10442E+02,3.10683E+01,9.88673E+00,5.16295E+00,1.42615E+00
200,1.09952E+02,3.09331E+01,9.84804E+00,5.14352E+00,1.42097E+00
201,1.09464E+02,3.07985E+01,9.80947E+00,5.12415E+00,1.41580E+00
202,1.08978E+02,3.06646E+01,9.77103E+00,5.10484E+00,1.41065E+00
203,1.08494E+02,3.05314E+01,9.73272E+00,5.08559E+00,1.40551E+00
204,1.08013E+02,3.03990E+01,9.69455E+00,5.06641E+00,1.40038E+00
205,1.07534E+02,3.02672E+01,9.65652E+00,5.04729E+00,1.39526E+00
206,1.07058E+02,3.01361E+01,9.61863E+00,5.02824E+00,1.39015E+00
207,1.06583E+02,3.00057E+01,9.58089E+00,5.00927E+00,1.38506E+00
208,1.06111E+02,2.98761E+01,9.54329E+00,4.99036E+00,1.37999E+00
209,1.05642E+02,2.97472E+01,9.50585E+00,4.97152E+00,1.37492E+00
210,1.05175E+02,2.96190E+01,9.46857E+00,4.95276E+00,1.36988E+00
211,1.04710E+02,2.94916E+01,9.43144E+00,4.93408E+00,1.36485E+00
212,1.04248E+02,2.93649E+01,9.39447E+00,4.91547E+00,1.35983E+00
213,1.03788E+02,2.92389E+01,9.35767E+00,4.89694E+00,1.35484E+00
214,1.03331E+02,2.91137E+01,9.32102E+00,4.87849E+00,1.34986E+00
215,1.02877E+02,2.89892E+01,9.28455E+00,4.86012E+00,1.34490E+00
216,1.02425E+02,2.88655E+01,9.24824E+00,4.84183E+00,1.33995E+00
217,1.01976E+02,2.87425E+01,9.21210E+00,4.82362E+00,1.33503E+00
218,1.01529E+02,2.86202E+01,9.17613E+00,4.80549E+00,1.33012E+00
219,1.01085E+02,2.84988E+01,9.14034E+00,4.78745E+00,1.32523E+00
220,1.00643E+02,2.83780E+01,9.10471E+00,4.76949E+00,1.32036E+00
221,1.00204E+02,2.82580E+01,9.06927E+00,4.75162E+00,1.31551E+00
222,9.97682E+01,2.81388E+01,9.03400E+00,4.73383E+00,1.31068E+00
223,9.93346E+01,2.80203E+01,8.99891E+00,4.71613E+00,1.30587E+00
224,9.89036E+01,2.79026E+01,8.96399E+00,4.69851E+00,1.30108E+00
225,9.84753E+01,2.77856E+01,8.92925E+00,4.68098E+00,1.29631E+00
226,9.80497E+01,2.76694E+01,8.89470E+00,4.66354E+00,1.29156E+00
227,9.76267E+01,2.75539E+01,8.86032E+00,4.64619E+00,1.28684E+00
228,9.72063E+01,2.74392E+01,8.82613E+00,4.62893E+00,1.28213E+00
229,9.67887E+01,2.73252E+01,8.79212E+00,4.61175E+00,1.27744E+00
230,9.63736E+01,2.72119E+01,8.75829E+00,4.59466E+00,1.27278E+00
231,9.59612E+01,2.70994E+01,8.72464E+00,4.57766E+00,1.26813E+00
232,9.55515E+01,2.69876E+01,8.69117E+00,4.56075E+00,1.26351E+00
233,9.51444E+01,2.68766E+01,8.65789E+00,4.54393E+00,1.25891E+00
234,9.47399E+01,2.67662E+01,8.62479E+00,4.52720E+00,1.25433E+00
235,9.43381E+01,2.66567E+01,8.59187E+00,4.51056E+00,1.24978E+00
236,9.39389E+01,2.65478E+01,8.55914E+00,4.49401E+00,1.24524E+00
237,9.35423E+01,2.64397E+01,8.52659E+00,4.47755E+00,1.24073E+00
238,9.31484E+01,2.63322E+01,8.49422E+00,4.46117E+00,1.23624E+00
239,9.27570E+01,2.62255E+01,8.46204E+00,4.44489E+00,1.23177E+00
240,9.23683E+01,2.61196E+01,8.43004E+00,4.42870E+00,1.22733E+00
241,9.19821E+01,2.60143E+01,8.39822E+00,4.41260E+00,1.22290E+00
242,9.15985E+01,2.59097E+01,8.36658E+00,4.39658E+00,1.21850E+00
243,9.12175E+01,2.58059E+01,8.33513E+00,4.38066E+00,1.21412E+00
244,9.08390E+01,2.57027E+01,8.30386E+00,4.36482E+00,1.20976E+00
245,9.04631E+01,2.56002E+01,8.27277E+00,4.34907E+00,1.20543E+00
246,9.00898E+01,2.54984E+01,8.24186E+00,4.33342E+00,1.20112E+00
247,8.97189E+01,2.53974E+01,8.21113E+00,4.31785E+00,1.19683E+00
248,8.93506E+01,2.52970E+01,8.18058E+00,4.30237E+00,1.19256E+00
249,8.89848E+01,2.51972E+01,8.15022E+00,4.28698E+00,1.18832E+00
250,8.86214E+01,2.50982E+01,8.12003E+00,4.27167E+00,1.18409E+00
251,8.82606E+01,2.49998E+01,8.09002E+00,4.25646E+00,1.17989E+00
252,8.79022E+01,2.49021E+01,8.06019E+00,4.24133E+00,1.17571E+00
253,8.75463E+01,2.48051E+01,8.03053E+00,4.22629E+00,1.17156E+00
254,8.71928E+01,2.47087E+01,8.00105E+00,4.21133E+00,1.16743E+00
255,8.68417E+01,2.46130E+01,7.97175E+00,4.19647E+00,1.16331E+00
256,8.64930E+01,2.45179E+01,7.94263E+00,4.18169E+00,1.15923E+00
257,8.61468E+01,2.44235E+01,7.91368E+00,4.16699E+00,1.15516E+00
258,8.58029E+01,2.43297E+01,7.88490E+00,4.15238E+00,1.15111E+00
259,8.54614E+01,2.42365E+01,7.85630E+00,4.13786E+00,1.14709E+00
260,8.51222E+01,2.41440E+01,7.82787E+00,4.12342E+00,1.14309E+00
261,8.47854E+01,2.40522E+01,7.79961E+00,4.10907E+00,1.13911E+00
262,8.44509E+01,2.39609E+01,7.77152E+00,4.09480E+00,1.13516E+00
263,8.41187E+01,2.38703E+01,7.74360E+00,4.08061E+00,1.13122E+00
264,8.37888E+01,2.37803E+01,7.71586E+00,4.06651E+00,1.12731E+00
265,8.34612E+01,2.36909E+01,7.68828E+00,4.05249E+00,1.12342E+00
266,8.31359E+01,2.36021E+01,7.66087E+00,4.03856E+00,1.11955E+00
267,8.28128E+01,2.35139E+01,7.63362E+00,4.02471E+00,1.11570E+00
268,8.24920E+01,2.34263E+01,7.60655E+00,4.01093E+00,1.11187E+00
269,8.21733E+01,2.33393E+01,7.57963E+00,3.99724E+00,1.10807E+00
270,8.18569E+01,2.32529E+01,7.55289E+00,3.98364E+00,1.10428E+00
271,8.15427E+01,2.31671E+01,7.52630E+00,3.97011E+00,1.10052E+00
272,8.12306E+01,2.30818E+01,7.49988E+00,3.95666E+00,1.09678E+00
273,8.09207E+01,2.29972E+01,7.47362E+00,3.94330E+00,1.09306E+00
274,8.06129E+01,2.29131E+01,7.44752E+00,3.93001E+00,1.08936E+00
275,8.03073E+01,2.28296E+01,7.42158E+00,3.91680E+00,1.08568E+00
276,8.00038E+01,2.27466E+01,7.39580E+00,3.90367E+00,1.08203E+00
277,7.97024E+01,2.26642E+01,7.37018E+00,3.89062E+00,1.07839E+00
278,7.94030E+01,2.25824E+01,7.34471E+00,3.87764E+00,1.07477E+00
279,7.91057E+01,2.25011E+01,7.31940E+00,3.86475E+00,1.07118E+00
280,7.88105E+01,2.24203E+01,7.29425E+00,3.85193E+00,1.06760E+00
281,7.85173E+01,2.23401E+01,7.26925E+00,3.83918E+00,1.06405E+00
282,7.82261E+01,2.22605E+01,7.24441E+00,3.82651E+00,1.06051E+00
283,7.79370E+01,2.21814E+01,7.21971E+00,3.81392E+00,1.05700E+00
284,7.76498E+01,2.21028E+01,7.19517E+00,3.80141E+00,1.05350E+00
285,7.73646E+01,2.20247E+01,7.17078E+00,3.78896E+00,1.05003E+00
286,7.70814E+01,2.19471E+01,7.14654E+00,3.77659E+00,1.04657E+00
287,7.68000E+01,2.18701E+01,7.12244E+00,3.76430E+00,1.04314E+00
288,7.65207E+01,2.17936E+01,7.09850E+00,3.75208E+00,1.03972E+00
289,7.62432E+01,2.17176E+01,7.07470E+00,3.73993E+00,1.03633E+00
290,7.59677E+01,2.16421E+01,7.05104E+00,3.72785E+00,1.03295E+00
291,7.56940E+01,2.15671E+01,7.02753E+00,3.71585E+00,1.02960E+00
292,7.54222E+01,2.14926E+01,7.00417E+00,3.70391E+00,1.02626E+00
293,7.51522E+01,2.14186E+01,6.98095E+00,3.69205E+00,1.02294E+00
294,7.48841E+01,2.13450E+01,6.95787E+00,3.68026E+00,1.01964E+00
295,7.46178E+01,2.12720E+01,6.93493E+00,3.66853E+00,1.01636E+00
296,7.43533E+01,2.11995E+01,6.91213E+00,3.65688E+00,1.01310E+00
297,7.40906E+01,2.11274E+01,6.88947E+00,3.64530E+00,1.00986E+00
298,7.38297E+01,2.10558E+01,6.86695E+00,3.63378E+00,1.00663E+00
299,7.35706E+01,2.09846E+01,6.84456E+00,3.62233E+00,1.00342E+00
300,7.33132E+01,2.09140E+01,6.82231E+00,3.61096E+00,1.00024E+00
301,7.30575E+01,2.08437E+01,6.80020E+00,3.59964E+00,9.97068E-01
302,7.28036E+01,2.07740E+01,6.77822E+00,3.58840E+00,9.93916E-01
303,7.25514E+01,2.07047E+01,6.75637E+00,3.57722E+00,9.90783E-01
304,7.23009E+01,2.06358E+01,6.73466E+00,3.56610E+00,9.87668E-01
305,7.20520E+01,2.05674E+01,6.71308E+00,3.55506E+00,9.84571E-01
306,7.18048E+01,2.04995E+01,6.69163E+00,3.54407E+00,9.81491E-01
307,7.15593E+01,2.04320E+01,6.67031E+00,3.53315E+00,9.78429E-01
